# t (hours) 	pwf (psi) 	pseudo-pressure (psi^2/cp)
  0.000 	3000 	633800000
  0.024 	2964 	621000000
  0.096 	2920 	605500000
  0.244 	2890 	594700000
  0.686 	2866 	586400000
  2.015 	2848 	580100000
  6.000 	2833 	574700000
 17.960 	2817 	569300000
 53.820 	2802 	564000000
161.000 	2786 	558500000
281.000 	2777 	555300000
401.000 	2771 	553200000
521.000 	2766 	551700000
641.000 	2763 	550500000
761.000 	2760 	549400000
881.000 	2757 	548500000